# Larch Linear Arrays for 05 best results
# Dataset filename: S400_T30_C_57scans_CAL.nor 
# Larch group: s400_t30_c 
# Array name: mu
# Energy fit range: [12272.000000, 12362.000000]
#---------------------------------
#   energy           data             fit_00           fit_01           fit_02           fit_03           fit_04         
  12272.0000000    0.00071052120    0.00023080115    0.00056179287    0.00069409599    0.00073494204    0.00016023963
  12272.5000000    0.00064863581    0.00028470948    0.00064160077    0.00078025143    0.00081117605    0.00021367707
  12273.0000000    0.00077550973    0.00034135495    0.00069186284    0.00084503974    0.00087902725    0.00024712522
  12273.5000000    0.00095404460    0.00035407515    0.00075852154    0.00089463667    0.00094133428    0.00030385711
  12274.0000000    0.00110659870    0.00036985736    0.00074286966    0.00085653906    0.00091946430    0.00034109519
  12274.5000000    0.00113540530    0.00047699708    0.00094831270    0.00108049211    0.00115483650    0.00045662592
  12275.0000000    0.00121180930    0.00056107039    0.00101218930    0.00117106542    0.00124203125    0.00049647628
  12275.5000000    0.00152718580    0.00069497434    0.00120761087    0.00139207862    0.00144889402    0.00061607821
  12276.0000000    0.00211001940    0.00089130313    0.00133864822    0.00153275979    0.00156680790    0.00077429225
  12276.5000000    0.00160638290    0.00098643690    0.00141189705    0.00155607457    0.00159538924    0.00093350094
  12277.0000000    0.00188560360    0.00113141467    0.00154141038    0.00168396400    0.00177714187    0.00107662958
  12277.5000000    0.00231940080    0.00140409666    0.00185516603    0.00199209144    0.00205582769    0.00137076917
  12278.1000000    0.00289788090    0.00186894918    0.00225002347    0.00244741277    0.00248219503    0.00172236886
  12278.5000000    0.00312987180    0.00214208071    0.00263478499    0.00283016346    0.00287434677    0.00203738053
  12279.0000000    0.00334989280    0.00255370004    0.00300544774    0.00323401109    0.00330406588    0.00238617644
  12279.5000000    0.00419220040    0.00329878006    0.00375481493    0.00410958145    0.00412708260    0.00294681355
  12280.0000000    0.00573190010    0.00415332033    0.00461541867    0.00507944424    0.00508019753    0.00363966819
  12280.5000000    0.00668429280    0.00487709520    0.00580370318    0.00627249216    0.00636381687    0.00451627521
  12281.0000000    0.00858748840    0.00632444015    0.00760336194    0.00836432241    0.00851947349    0.00565770050
  12281.5000000    0.01189164100    0.00850440663    0.01035335096    0.01140315794    0.01164212612    0.00761007223
  12282.0000000    0.01678852400    0.01160655098    0.01372937830    0.01527109471    0.01557365447    0.01007297558
  12282.5000000    0.02406257300    0.01574399180    0.01863955098    0.02060141275    0.02131655666    0.01384584070
  12283.0000000    0.03411638200    0.02399062958    0.02661398599    0.02998455303    0.03092542988    0.01990200498
  12283.5000000    0.05218459900    0.03614438688    0.03992375266    0.04464330701    0.04595092076    0.03035717435
  12284.0000000    0.07852813200    0.05713256845    0.06014296526    0.06801498038    0.06962182818    0.04632303263
  12284.5000000    0.12742520000    0.09613198618    0.09697889668    0.10844284024    0.10867527554    0.07888909915
  12285.0000000    0.19389502000    0.15377264159    0.15469629662    0.16775070397    0.16482570941    0.13343212361
  12285.5000000    0.27035762000    0.23769358639    0.23872932566    0.25544812401    0.24445831979    0.21099471652
  12286.1000000    0.36218466000    0.35957979073    0.36069497516    0.36700126082    0.34084348187    0.34627724674
  12286.5000000    0.43500139000    0.43833374727    0.44365439564    0.44128828223    0.40431715473    0.43823433789
  12287.0000000    0.50053426000    0.52422435390    0.53843407386    0.53739676837    0.49170630003    0.52576626168
  12287.5000000    0.54503484000    0.57320595121    0.58389590174    0.59037832056    0.54074920011    0.56393869987
  12288.0000000    0.56914035000    0.58180731932    0.59047819033    0.60477743850    0.55824126243    0.56235280262
  12288.5000000    0.57189134000    0.57462796760    0.57117820196    0.59015598117    0.54901188762    0.54595871644
  12289.0000000    0.55765001000    0.56184489807    0.55309339394    0.56664657244    0.53559225405    0.54062655375
  12289.5000000    0.56147342000    0.55581132348    0.54405175195    0.54946412216    0.52807145721    0.54629986324
  12290.0000000    0.55508639000    0.56217434161    0.54287857897    0.54165838069    0.52724954629    0.56001301787
  12290.5000000    0.56880681000    0.57479174096    0.54832478399    0.54326416602    0.53464406607    0.57574740625
  12291.0000000    0.57906022000    0.58597487405    0.55957130607    0.55402563465    0.54982992843    0.58728962783
  12291.5000000    0.59809346000    0.60452011128    0.57963349217    0.57456923852    0.57423444019    0.60523509591
  12292.0000000    0.62873854000    0.62954784893    0.60940332558    0.60341026456    0.60611785278    0.63279609415
  12292.5000000    0.66011292000    0.66560937980    0.64259632939    0.63750645718    0.64123125925    0.66603635328
  12293.0000000    0.69062187000    0.70477992606    0.68082013122    0.67564720391    0.67713130767    0.70416678512
  12293.6000000    0.72627779000    0.75618084191    0.72856870927    0.72275808014    0.71949174766    0.75428247761
  12294.0000000    0.75381700000    0.78687961732    0.75748584960    0.75231555668    0.74466872535    0.78273787482
  12294.5000000    0.78474397000    0.81577827516    0.79349976529    0.79218305341    0.78124153104    0.80798794520
  12295.0000000    0.81769693000    0.83631462267    0.82662646280    0.83148686299    0.81800213366    0.82370152752
  12295.5000000    0.83880588000    0.85074969099    0.85343589058    0.86655066922    0.85118937157    0.83052451294
  12296.0000000    0.85955018000    0.85573459074    0.87688962220    0.89626272947    0.88199126186    0.83304998597
  12296.5000000    0.86675145000    0.85709792156    0.89419477352    0.91727136994    0.90531187213    0.83492718568
  12297.0000000    0.87426826000    0.85621761741    0.90039801190    0.92418445682    0.91463913439    0.83565265472
  12297.5000000    0.87687461000    0.85490863111    0.90083261768    0.91964000159    0.91260954784    0.84211273685
  12298.0000000    0.87215059000    0.85559555956    0.89710407419    0.91003774020    0.90529007242    0.84969483784
  12298.5000000    0.86753062000    0.85248593204    0.89168998615    0.89369225771    0.89398152316    0.86161106635
  12299.0000000    0.86020856000    0.85716629679    0.88588998284    0.88415081018    0.88541149848    0.86801623621
  12299.5000000    0.85917432000    0.85521261870    0.88139163738    0.87266337807    0.87793342701    0.87527365112
  12300.0000000    0.85234352000    0.86410988124    0.87707940515    0.86615138631    0.87055227281    0.88273625538
  12300.5000000    0.84628432000    0.86496191840    0.87450656810    0.85840323467    0.86637748854    0.88997555169
  12301.0000000    0.85047469000    0.87465392384    0.87229327426    0.85568280681    0.86212399884    0.89622000568
  12301.6000000    0.85132375000    0.88179193580    0.87190070845    0.85507163395    0.86202538368    0.90111788914
  12302.0000000    0.85598140000    0.88536084430    0.87152478513    0.85453827763    0.86161940653    0.90350367228
  12302.5000000    0.86177910000    0.88571213369    0.87501402253    0.85575179556    0.86404396882    0.90820631285
  12303.0000000    0.86959155000    0.88829635190    0.88107331819    0.86281996846    0.87279980788    0.91074665257
  12303.5000000    0.88294234000    0.89570625009    0.88467719685    0.86782404871    0.87732024640    0.91483009160
  12304.0000000    0.89292760000    0.89907580092    0.89380150032    0.87837823768    0.88856861531    0.91833521156
  12304.5000000    0.89753257000    0.91016214981    0.90723210364    0.89555153860    0.90495455882    0.92492245465
  12305.0000000    0.91771134000    0.91193130129    0.91790856362    0.90564956205    0.91625023445    0.93068159529
  12305.5000000    0.93096918000    0.91554972606    0.92933482541    0.91892198851    0.93105460502    0.93463963934
  12306.0000000    0.94724154000    0.92132972458    0.94529097316    0.93720767191    0.95002175884    0.94074520759
  12306.5000000    0.95510994000    0.93147445202    0.95714528693    0.95215167717    0.96313151415    0.94714960631
  12307.0000000    0.96570229000    0.93636102690    0.96691405342    0.96442477224    0.97646334458    0.95034790810
  12307.5000000    0.97462203000    0.94527561646    0.97699732437    0.97706322745    0.98745488127    0.95604432644
  12308.0000000    0.97337376000    0.95156045902    0.98634478707    0.98599008213    0.99706070315    0.96418190526
  12308.5000000    0.98261545000    0.95910280737    0.99258191080    0.99411479610    1.00374431503    0.96856844294
  12309.0000000    0.98380684000    0.96562808978    0.99973042119    1.00040134191    1.01050875659    0.97668581038
  12309.6000000    0.98805153000    0.97582643821    1.00489022761    1.00737033235    1.01587397182    0.98249181333
  12310.0000000    0.99280671000    0.98095418763    1.00928347114    1.01261692606    1.02145550819    0.98624604486
  12310.5000000    0.99813400000    0.98673259438    1.01651023947    1.02046113196    1.02823531629    0.99168963300
  12311.0000000    1.00381420000    0.99080592808    1.02247909304    1.02628128236    1.03493634824    0.99669034279
  12311.5000000    1.00687260000    0.99452559868    1.02693387122    1.02998053515    1.03874598039    1.00182509850
  12312.0000000    1.01165330000    0.99747960399    1.03193430304    1.03302149320    1.04330530177    1.00836029892
  12312.5000000    1.01489340000    1.00239437893    1.03686726756    1.03822621379    1.04679941261    1.01282524269
  12313.0000000    1.01600600000    1.00688590624    1.03922435074    1.04006122064    1.04844918728    1.01730034439
  12313.5000000    1.02474150000    1.01187995581    1.04055489908    1.03857206506    1.04686372291    1.02500394893
  12314.0000000    1.02415960000    1.01682768320    1.03579933801    1.03356180172    1.03994746641    1.02682093535
  12314.5000000    1.02436560000    1.01803399724    1.03149278296    1.02654271857    1.03328908645    1.02992876000
  12315.0000000    1.02528200000    1.02363314955    1.02696341000    1.01845921178    1.02334216079    1.03692366826
  12315.5000000    1.02475550000    1.02555036303    1.02309185165    1.01252104679    1.01652539802    1.03973457292
  12316.0000000    1.03093380000    1.02654960460    1.01862529500    1.00653134507    1.00915668330    1.04084724216
  12316.5000000    1.02934470000    1.03587251973    1.01132738738    0.99671189860    0.99755081147    1.04794924307
  12317.0000000    1.02685680000    1.03698977699    1.00769753059    0.99257046255    0.99304931763    1.04802037609
  12317.6000000    1.03292370000    1.04439017113    1.01049746171    0.99500341333    0.99454658006    1.05445331431
  12318.0000000    1.03287740000    1.04305889737    1.00877678771    0.99414943836    0.99429079611    1.05172890575
  12318.5000000    1.03603030000    1.04911869087    1.00980754974    0.99684191049    0.99530384555    1.05368138170
  12319.0000000    1.04179930000    1.04961215844    1.01254971549    1.00235018955    1.00078827945    1.05111874317
  12319.5000000    1.04769450000    1.04823622553    1.01473307577    1.00531580973    1.00438958595    1.04986512745
  12320.0000000    1.05016060000    1.05249278143    1.01925062732    1.01342018980    1.01255404437    1.04928617336
  12320.5000000    1.05215770000    1.05290066051    1.02508819206    1.02112883480    1.02054899798    1.04898155568
  12321.0000000    1.05955310000    1.05131698358    1.02891142207    1.02519479331    1.02496991014    1.04898704041
  12321.5000000    1.06073620000    1.04890843530    1.03099536511    1.03088732201    1.03068391039    1.04290209893
  12322.0000000    1.06030370000    1.05143123831    1.03418785171    1.03546257050    1.03592597802    1.04390737165
  12322.5000000    1.06074650000    1.05166432441    1.03577786776    1.03894282591    1.03904158687    1.04190332860
  12323.0000000    1.05835850000    1.05213252388    1.03702406308    1.04174408810    1.04190921210    1.04042262324
  12323.5000000    1.05420370000    1.05653997558    1.04009173773    1.04674250218    1.04534556020    1.04158134401
  12324.0000000    1.06187670000    1.05012431880    1.04157660415    1.04950740661    1.04952447982    1.03610628761
  12324.5000000    1.05972650000    1.05072300178    1.04027059366    1.04875364749    1.04856752617    1.03521599419
  12325.1000000    1.05563450000    1.05072527705    1.04159681032    1.05195959571    1.05142138377    1.03293661424
  12325.5000000    1.05334410000    1.05082237878    1.04313560756    1.05467169650    1.05306465215    1.03184044435
  12326.0000000    1.05610170000    1.04758444905    1.04290422337    1.05530186519    1.05357795821    1.02835975740
  12326.5000000    1.05774930000    1.04797677933    1.04439763651    1.05762084586    1.05729080798    1.02797771515
  12327.0000000    1.05576510000    1.04798100541    1.04603117423    1.05943673217    1.05756268622    1.02817039078
  12327.5000000    1.04931280000    1.04385432060    1.04689781540    1.05937627749    1.05926624239    1.02722332265
  12328.0000000    1.04485210000    1.04386832875    1.04534009715    1.05705186808    1.05745137198    1.02781357433
  12329.3000000    1.03994570000    1.04090087852    1.03952823798    1.05171185860    1.05130076736    1.02298224819
  12332.0000000    1.03439580000    1.03730567286    1.04177237255    1.05648182999    1.05396171153    1.01762111066
  12333.5000000    1.03521420000    1.03073371348    1.03708593624    1.05011755983    1.04754654288    1.01389887560
  12334.7000000    1.02987550000    1.02785934151    1.03308269216    1.04472584220    1.04198623827    1.01249946013
  12336.2000000    1.02227970000    1.02246408357    1.02354650014    1.03336749298    1.03133712276    1.00820896244
  12337.6000000    1.00339710000    1.01898728968    1.01132978916    1.01977249515    1.01576270261    1.00345223793
  12339.0000000    0.99742955000    1.01382911598    0.99743399967    1.00333837930    0.99815278800    0.99865999572
  12340.5000000    0.99028302000    1.00890255333    0.98626519191    0.98978539606    0.98448992968    0.99491749854
  12342.0000000    0.98070984000    1.00035495449    0.97850856247    0.98177835271    0.97656572176    0.98693311581
  12343.4000000    0.97205106000    0.99431582858    0.97555778460    0.97792919067    0.97377803072    0.98332680850
  12345.0000000    0.97511650000    0.98389903144    0.97166138564    0.97417222107    0.97181130993    0.97508055257
  12346.6000000    0.96710592000    0.97999719940    0.97304893866    0.97585771905    0.97481727398    0.97278051015
  12348.1000000    0.96450535000    0.97432928061    0.96974761486    0.97176617140    0.97147446706    0.96917262747
  12349.8000000    0.95796873000    0.96843074032    0.96270152777    0.96193149727    0.96244882574    0.96686405613
  12351.2000000    0.96181018000    0.96713865807    0.95623533654    0.95256179894    0.95371709172    0.96788509313
  12352.8000000    0.95795916000    0.96093194382    0.95054911407    0.94519161504    0.94672026647    0.96414811374
  12354.6000000    0.96306710000    0.96340331616    0.94857956727    0.94105589613    0.94324710036    0.96834223662
  12356.2000000    0.96873835000    0.96696987031    0.95729802041    0.95076512645    0.95412713041    0.97255597280
  12357.9000000    0.96981969000    0.97283454880    0.96660704748    0.96139581496    0.96546295472    0.97793605177
  12359.4000000    0.98794287000    0.97380757600    0.97581156505    0.97085185257    0.97669145876    0.98158602488
  12361.2000000    0.98960309000    0.97850940314    0.98718212133    0.98431188131    0.99086525593    0.98581299729
